Time,Amplitude
0,0
2.26757e-005,0.0553831
4.53515e-005,0.110697
6.80272e-005,0.165874
9.07029e-005,0.220845
0.000113379,0.275541
0.000136054,0.329895
0.00015873,0.383838
0.000181406,0.437305
0.000204082,0.490229
0.000226757,0.542544
0.000249433,0.594185
0.000272109,0.645089
0.000294785,0.695192
0.00031746,0.744432
0.000340136,0.792749
0.000362812,0.840082
0.000385488,0.886374
0.000408163,0.931567
0.000430839,0.975606
0.000453515,1.01844
0.00047619,1.06001
0.000498866,1.10026
0.000521542,1.13916
0.000544218,1.17665
0.000566893,1.21268
0.000589569,1.24722
0.000612245,1.28022
0.000634921,1.31163
0.000657596,1.34143
0.000680272,1.36958
0.000702948,1.39604
0.000725624,1.42078
0.000748299,1.44378
0.000770975,1.465
0.000793651,1.48442
0.000816327,1.50202
0.000839002,1.51778
0.000861678,1.53168
0.000884354,1.54371
0.000907029,1.55384
0.000929705,1.56209
0.000952381,1.56842
0.000975057,1.57285
0.000997732,1.57536
0.00102041,1.57596
0.00104308,1.57464
0.00106576,1.57142
0.00108844,1.56629
0.00111111,1.55927
0.00113379,1.55036
0.00115646,1.53959
0.00117914,1.52697
0.00120181,1.51251
0.00122449,1.49624
0.00124717,1.47819
0.00126984,1.45836
0.00129252,1.4368
0.00131519,1.41354
0.00133787,1.3886
0.00136054,1.36201
0.00138322,1.33382
0.0014059,1.30407
0.00142857,1.27279
0.00145125,1.24002
0.00147392,1.20581
0.0014966,1.1702
0.00151927,1.13324
0.00154195,1.09498
0.00156463,1.05547
0.0015873,1.01477
0.00160998,0.972912
0.00163265,0.929966
0.00165533,0.885985
0.001678,0.841026
0.00170068,0.795146
0.00172336,0.748405
0.00174603,0.700864
0.00176871,0.652582
0.00179138,0.603623
0.00181406,0.554048
0.00183673,0.503921
0.00185941,0.453306
0.00188209,0.402268
0.00190476,0.35087
0.00192744,0.299178
0.00195011,0.247257
0.00197279,0.195173
0.00199546,0.142991
0.00201814,0.0907762
0.00204082,0.0385941
0.00206349,-0.0134904
0.00208617,-0.0654123
0.00210884,-0.117107
0.00213152,-0.168512
0.0021542,-0.219561
0.00217687,-0.270194
0.00219955,-0.320348
0.00222222,-0.369962
0.0022449,-0.418974
0.00226757,-0.467327
0.00229025,-0.51496
0.00231293,-0.561817
0.0023356,-0.607842
0.00235828,-0.65298
0.00238095,-0.697177
0.00240363,-0.74038
0.0024263,-0.782539
0.00244898,-0.823604
0.00247166,-0.863528
0.00249433,-0.902264
0.00251701,-0.939768
0.00253968,-0.975997
0.00256236,-1.01091
0.00258503,-1.04447
0.00260771,-1.07663
0.00263039,-1.10737
0.00265306,-1.13664
0.00267574,-1.16443
0.00269841,-1.19069
0.00272109,-1.21539
0.00274376,-1.23853
0.00276644,-1.26007
0.00278912,-1.27998
0.00281179,-1.29826
0.00283447,-1.31489
0.00285714,-1.32984
0.00287982,-1.34311
0.00290249,-1.3547
0.00292517,-1.36458
0.00294785,-1.37275
0.00297052,-1.37922
0.0029932,-1.38398
0.00301587,-1.38703
0.00303855,-1.38838
0.00306122,-1.38802
0.0030839,-1.38597
0.00310658,-1.38224
0.00312925,-1.37684
0.00315193,-1.36978
0.0031746,-1.36109
0.00319728,-1.35077
0.00321995,-1.33885
0.00324263,-1.32535
0.00326531,-1.31029
0.00328798,-1.2937
0.00331066,-1.27562
0.00333333,-1.25606
0.00335601,-1.23506
0.00337868,-1.21265
0.00340136,-1.18888
0.00342404,-1.16377
0.00344671,-1.13736
0.00346939,-1.10969
0.00349206,-1.08081
0.00351474,-1.05076
0.00353741,-1.01957
0.00356009,-0.987303
0.00358277,-0.953997
0.00360544,-0.9197
0.00362812,-0.884463
0.00365079,-0.848333
0.00367347,-0.811361
0.00369615,-0.773599
0.00371882,-0.735099
0.0037415,-0.695914
0.00376417,-0.656097
0.00378685,-0.615703
0.00380952,-0.574785
0.0038322,-0.533399
0.00385488,-0.4916
0.00387755,-0.449444
0.00390023,-0.406985
0.0039229,-0.364281
0.00394558,-0.321387
0.00396825,-0.278358
0.00399093,-0.235251
0.00401361,-0.19212
0.00403628,-0.149021
0.00405896,-0.106009
0.00408163,-0.0631381
0.00410431,-0.0204623
0.00412698,0.0219651
0.00414966,0.0640914
0.00417234,0.105865
0.00419501,0.147233
0.00421769,0.188147
0.00424036,0.228557
0.00426304,0.268413
0.00428571,0.307669
0.00430839,0.346278
0.00433107,0.384195
0.00435374,0.421375
0.00437642,0.457776
0.00439909,0.493356
0.00442177,0.528074
0.00444444,0.561893
0.00446712,0.594775
0.0044898,0.626683
0.00451247,0.657584
0.00453515,0.687444
0.00455782,0.716232
0.0045805,0.743919
0.00460317,0.770477
0.00462585,0.79588
0.00464853,0.820103
0.0046712,0.843124
0.00469388,0.864921
0.00471655,0.885475
0.00473923,0.904769
0.0047619,0.922788
0.00478458,0.939517
0.00480726,0.954945
0.00482993,0.969062
0.00485261,0.98186
0.00487528,0.993331
0.00489796,1.00347
0.00492063,1.01228
0.00494331,1.01976
0.00496599,1.0259
0.00498866,1.03071
0.00501134,1.03419
0.00503401,1.03636
0.00505669,1.03722
0.00507937,1.03677
0.00510204,1.03503
0.00512472,1.03202
0.00514739,1.02775
0.00517007,1.02223
0.00519274,1.01548
0.00521542,1.00753
0.0052381,0.998386
0.00526077,0.988081
0.00528345,0.976636
0.00530612,0.964076
0.0053288,0.950429
0.00535147,0.935721
0.00537415,0.919983
0.00539683,0.903244
0.0054195,0.885536
0.00544218,0.866893
0.00546485,0.847347
0.00548753,0.826933
0.0055102,0.805687
0.00553288,0.783645
0.00555556,0.760845
0.00557823,0.737324
0.00560091,0.713122
0.00562358,0.688277
0.00564626,0.662829
0.00566893,0.636819
0.00569161,0.610287
0.00571429,0.583274
0.00573696,0.555823
0.00575964,0.527974
0.00578231,0.49977
0.00580499,0.471252
0.00582766,0.442464
0.00585034,0.413446
0.00587302,0.38424
0.00589569,0.35489
0.00591837,0.325436
0.00594104,0.295919
0.00596372,0.266382
0.00598639,0.236864
0.00600907,0.207407
0.00603175,0.178049
0.00605442,0.148831
0.0060771,0.119791
0.00609977,0.0909671
0.00612245,0.0623971
0.00614512,0.0341174
0.0061678,0.00616398
0.00619048,-0.021428
0.00621315,-0.0486246
0.00623583,-0.0753923
0.0062585,-0.101699
0.00628118,-0.127513
0.00630385,-0.152805
0.00632653,-0.177546
0.00634921,-0.201706
0.00637188,-0.225261
0.00639456,-0.248183
0.00641723,-0.270449
0.00643991,-0.292035
0.00646259,-0.312919
0.00648526,-0.333081
0.00650794,-0.352502
0.00653061,-0.371163
0.00655329,-0.389048
0.00657596,-0.406142
0.00659864,-0.42243
0.00662132,-0.437901
0.00664399,-0.452542
0.00666667,-0.466346
0.00668934,-0.479302
0.00671202,-0.491404
0.00673469,-0.502648
0.00675737,-0.513027
0.00678005,-0.522541
0.00680272,-0.531187
0.0068254,-0.538966
0.00684807,-0.545879
0.00687075,-0.551928
0.00689342,-0.557119
0.0069161,-0.561455
0.00693878,-0.564945
0.00696145,-0.567595
0.00698413,-0.569415
0.0070068,-0.570415
0.00702948,-0.570608
0.00705215,-0.570005
0.00707483,-0.568621
0.00709751,-0.566471
0.00712018,-0.56357
0.00714286,-0.559936
0.00716553,-0.555587
0.00718821,-0.550542
0.00721088,-0.544821
0.00723356,-0.538444
0.00725624,-0.531434
0.00727891,-0.523812
0.00730159,-0.515602
0.00732426,-0.506828
0.00734694,-0.497513
0.00736961,-0.487684
0.00739229,-0.477366
0.00741497,-0.466585
0.00743764,-0.455367
0.00746032,-0.44374
0.00748299,-0.431731
0.00750567,-0.419368
0.00752834,-0.406678
0.00755102,-0.39369
0.0075737,-0.380431
0.00759637,-0.366931
0.00761905,-0.353218
0.00764172,-0.339321
0.0076644,-0.325266
0.00768707,-0.311084
0.00770975,-0.296802
0.00773243,-0.282447
0.0077551,-0.268049
0.00777778,-0.253633
0.00780045,-0.239228
0.00782313,-0.22486
0.0078458,-0.210555
0.00786848,-0.19634
0.00789116,-0.182238
0.00791383,-0.168276
0.00793651,-0.154477
0.00795918,-0.140865
0.00798186,-0.127463
0.00800454,-0.114292
0.00802721,-0.101375
0.00804989,-0.0887319
0.00807256,-0.0763824
0.00809524,-0.0643456
0.00811791,-0.0526397
0.00814059,-0.0412819
0.00816327,-0.0302885
0.00818594,-0.019675
0.00820862,-0.00945573
0.00823129,0.000355959
0.00825397,0.00974755
0.00827664,0.0187077
0.00829932,0.027226
0.008322,0.0352931
0.00834467,0.0429007
0.00836735,0.0500417
0.00839002,0.0567099
0.0084127,0.0629003
0.00843537,0.0686088
0.00845805,0.0738327
0.00848073,0.07857
0.0085034,0.0828201
0.00852608,0.0865832
0.00854875,0.0898608
0.00857143,0.0926554
0.0085941,0.0949704
0.00861678,0.0968104
0.00863946,0.0981809
0.00866213,0.0990885
0.00868481,0.0995408
0.00870748,0.0995462
0.00873016,0.0991142
0.00875283,0.0982553
0.00877551,0.0969806
0.00879819,0.0953022
0.00882086,0.0932334
0.00884354,0.0907878
0.00886621,0.0879799
0.00888889,0.0848253
0.00891156,0.0813398
0.00893424,0.0775403
0.00895692,0.0734441
0.00897959,0.0690693
0.00900227,0.0644345
0.00902494,0.0595586
0.00904762,0.0544614
0.00907029,0.0491629
0.00909297,0.0436836
0.00911565,0.0380443
0.00913832,0.0322662
0.009161,0.0263707
0.00918367,0.0203795
0.00920635,0.0143145
0.00922902,0.00819783
0.0092517,0.00205152
0.00927438,-0.00410221
0.00929705,-0.0102411
0.00931973,-0.016343
0.0093424,-0.0223858
0.00936508,-0.0283475
0.00938776,-0.0342063
0.00941043,-0.0399405
0.00943311,-0.0455288
0.00945578,-0.0509502
0.00947846,-0.0561838
0.00950113,-0.0612095
0.00952381,-0.0660071
0.00954649,-0.0705574
0.00956916,-0.0748414
0.00959184,-0.0788406
0.00961451,-0.0825374
0.00963719,-0.0859144
0.00965986,-0.0889552
0.00968254,-0.091644
0.00970522,-0.0939656
0.00972789,-0.0959057
0.00975057,-0.0974509
0.00977324,-0.0985883
0.00979592,-0.0993062
0.00981859,-0.0995935
0.00984127,-0.0994401
0.00986395,-0.098837
0.00988662,-0.0977758
0.0099093,-0.0962495
0.00993197,-0.0942518
0.00995465,-0.0917773
0.00997732,-0.0888221
0.01,-0.0853829
0.0100227,-0.0814575
0.0100454,-0.0770451
0.010068,-0.0721454
0.0100907,-0.0667597
0.0101134,-0.0608901
0.0101361,-0.05454
0.0101587,-0.0477136
0.0101814,-0.0404163
0.0102041,-0.0326547
0.0102268,-0.0244362
0.0102494,-0.0157696
0.0102721,-0.00666442
0.0102948,0.00286851
0.0103175,0.0128175
0.0103401,0.0231698
0.0103628,0.0339116
0.0103855,0.0450281
0.0104082,0.0565038
0.0104308,0.0683219
0.0104535,0.080465
0.0104762,0.0929146
0.0104989,0.105651
0.0105215,0.118655
0.0105442,0.131906
0.0105669,0.14538
0.0105896,0.159057
0.0106122,0.172913
0.0106349,0.186924
0.0106576,0.201067
0.0106803,0.215315
0.0107029,0.229644
0.0107256,0.244027
0.0107483,0.258439
0.010771,0.272852
0.0107937,0.287238
0.0108163,0.301572
0.010839,0.315824
0.0108617,0.329967
0.0108844,0.343972
0.010907,0.357811
0.0109297,0.371456
0.0109524,0.384879
0.0109751,0.39805
0.0109977,0.410942
0.0110204,0.423526
0.0110431,0.435775
0.0110658,0.447659
0.0110884,0.459153
0.0111111,0.470228
0.0111338,0.480858
0.0111565,0.491016
0.0111791,0.500676
0.0112018,0.509813
0.0112245,0.518403
0.0112472,0.526419
0.0112698,0.53384
0.0112925,0.540641
0.0113152,0.546802
0.0113379,0.5523
0.0113605,0.557115
0.0113832,0.561228
0.0114059,0.56462
0.0114286,0.567272
0.0114512,0.569169
0.0114739,0.570294
0.0114966,0.570633
0.0115193,0.570172
0.011542,0.5689
0.0115646,0.566804
0.0115873,0.563875
0.01161,0.560104
0.0116327,0.555484
0.0116553,0.550008
0.011678,0.543671
0.0117007,0.53647
0.0117234,0.528402
0.011746,0.519466
0.0117687,0.509664
0.0117914,0.498996
0.0118141,0.487465
0.0118367,0.475078
0.0118594,0.461838
0.0118821,0.447755
0.0119048,0.432835
0.0119274,0.417091
0.0119501,0.400533
0.0119728,0.383174
0.0119955,0.365028
0.0120181,0.346112
0.0120408,0.326442
0.0120635,0.306037
0.0120862,0.284916
0.0121088,0.263101
0.0121315,0.240614
0.0121542,0.217478
0.0121769,0.193719
0.0121995,0.169362
0.0122222,0.144435
0.0122449,0.118965
0.0122676,0.0929832
0.0122902,0.0665194
0.0123129,0.039605
0.0123356,0.012273
0.0123583,-0.0154434
0.012381,-0.0435094
0.0124036,-0.0718899
0.0124263,-0.100549
0.012449,-0.129449
0.0124717,-0.158552
0.0124943,-0.187821
0.012517,-0.217217
0.0125397,-0.246699
0.0125624,-0.276227
0.012585,-0.305762
0.0126077,-0.335263
0.0126304,-0.364687
0.0126531,-0.393994
0.0126757,-0.423141
0.0126984,-0.452087
0.0127211,-0.480791
0.0127438,-0.509208
0.0127664,-0.537299
0.0127891,-0.56502
0.0128118,-0.592329
0.0128345,-0.619186
0.0128571,-0.645549
0.0128798,-0.671376
0.0129025,-0.696627
0.0129252,-0.721263
0.0129478,-0.745242
0.0129705,-0.768527
0.0129932,-0.791079
0.0130159,-0.812859
0.0130385,-0.833832
0.0130612,-0.85396
0.0130839,-0.873209
0.0131066,-0.891544
0.0131293,-0.908933
0.0131519,-0.925341
0.0131746,-0.94074
0.0131973,-0.955097
0.01322,-0.968385
0.0132426,-0.980576
0.0132653,-0.991644
0.013288,-1.00156
0.0133107,-1.01031
0.0133333,-1.01787
0.013356,-1.02421
0.0133787,-1.02931
0.0134014,-1.03317
0.013424,-1.03576
0.0134467,-1.03706
0.0134694,-1.03708
0.0134921,-1.03578
0.0135147,-1.03318
0.0135374,-1.02925
0.0135601,-1.024
0.0135828,-1.01741
0.0136054,-1.00949
0.0136281,-1.00024
0.0136508,-0.989655
0.0136735,-0.977741
0.0136961,-0.964503
0.0137188,-0.949948
0.0137415,-0.934085
0.0137642,-0.916924
0.0137868,-0.898479
0.0138095,-0.878763
0.0138322,-0.857792
0.0138549,-0.835585
0.0138776,-0.812161
0.0139002,-0.787543
0.0139229,-0.761752
0.0139456,-0.734814
0.0139683,-0.706757
0.0139909,-0.677608
0.0140136,-0.647397
0.0140363,-0.616157
0.014059,-0.583921
0.0140816,-0.550723
0.0141043,-0.5166
0.014127,-0.481589
0.0141497,-0.445731
0.0141723,-0.409066
0.014195,-0.371635
0.0142177,-0.333483
0.0142404,-0.294653
0.014263,-0.255192
0.0142857,-0.215146
0.0143084,-0.174563
0.0143311,-0.133492
0.0143537,-0.0919826
0.0143764,-0.050086
0.0143991,-0.00785356
0.0144218,0.0346626
0.0144444,0.0774095
0.0144671,0.120333
0.0144898,0.163381
0.0145125,0.206496
0.0145351,0.249625
0.0145578,0.292713
0.0145805,0.335703
0.0146032,0.37854
0.0146259,0.421168
0.0146485,0.463532
0.0146712,0.505575
0.0146939,0.547243
0.0147166,0.588479
0.0147392,0.629228
0.0147619,0.669436
0.0147846,0.709049
0.0148073,0.748011
0.0148299,0.786271
0.0148526,0.823775
0.0148753,0.860472
0.014898,0.89631
0.0149206,0.93124
0.0149433,0.965211
0.014966,0.998177
0.0149887,1.03009
0.0150113,1.0609
0.015034,1.09057
0.0150567,1.11905
0.0150794,1.1463
0.015102,1.17228
0.0151247,1.19695
0.0151474,1.22028
0.0151701,1.24222
0.0151927,1.26274
0.0152154,1.28181
0.0152381,1.2994
0.0152608,1.31548
0.0152834,1.33002
0.0153061,1.343
0.0153288,1.35439
0.0153515,1.36417
0.0153741,1.37232
0.0153968,1.37883
0.0154195,1.38367
0.0154422,1.38684
0.0154649,1.38833
0.0154875,1.38812
0.0155102,1.3862
0.0155329,1.38258
0.0155556,1.37726
0.0155782,1.37022
0.0156009,1.36147
0.0156236,1.35102
0.0156463,1.33888
0.0156689,1.32504
0.0156916,1.30953
0.0157143,1.29235
0.015737,1.27353
0.0157596,1.25307
0.0157823,1.23099
0.015805,1.20733
0.0158277,1.1821
0.0158503,1.15533
0.015873,1.12705
0.0158957,1.09728
0.0159184,1.06607
0.015941,1.03343
0.0159637,0.99942
0.0159864,0.964065
0.0160091,0.927406
0.0160317,0.889487
0.0160544,0.85035
0.0160771,0.81004
0.0160998,0.768605
0.0161224,0.726092
0.0161451,0.682552
0.0161678,0.638036
0.0161905,0.592597
0.0162132,0.546288
0.0162358,0.499166
0.0162585,0.451286
0.0162812,0.402707
0.0163039,0.353488
0.0163265,0.303687
0.0163492,0.253367
0.0163719,0.202588
0.0163946,0.151413
0.0164172,0.0999048
0.0164399,0.048127
0.0164626,-0.00385625
0.0164853,-0.0559804
0.0165079,-0.108181
0.0165306,-0.160392
0.0165533,-0.212549
0.016576,-0.264586
0.0165986,-0.316437
0.0166213,-0.368038
0.016644,-0.419324
0.0166667,-0.470228
0.0166893,-0.520688
0.016712,-0.570637
0.0167347,-0.620014
0.0167574,-0.668754
0.01678,-0.716796
0.0168027,-0.764077
0.0168254,-0.810538
0.0168481,-0.856117
0.0168707,-0.900757
0.0168934,-0.944399
0.0169161,-0.986987
0.0169388,-1.02847
0.0169615,-1.06878
0.0169841,-1.10788
0.0170068,-1.14571
0.0170295,-1.18222
0.0170522,-1.21737
0.0170748,-1.2511
0.0170975,-1.28338
0.0171202,-1.31416
0.0171429,-1.3434
0.0171655,-1.37105
0.0171882,-1.39709
0.0172109,-1.42148
0.0172336,-1.44418
0.0172562,-1.46517
0.0172789,-1.4844
0.0173016,-1.50187
0.0173243,-1.51753
0.0173469,-1.53138
0.0173696,-1.54339
0.0173923,-1.55354
0.017415,-1.56182
0.0174376,-1.56821
0.0174603,-1.5727
0.017483,-1.57529
0.0175057,-1.57597
0.0175283,-1.57474
0.017551,-1.57159
0.0175737,-1.56652
0.0175964,-1.55955
0.017619,-1.55068
0.0176417,-1.53991
0.0176644,-1.52725
0.0176871,-1.51273
0.0177098,-1.49636
0.0177324,-1.47815
0.0177551,-1.45812
0.0177778,-1.43631
0.0178005,-1.41273
0.0178231,-1.38741
0.0178458,-1.36038
0.0178685,-1.33168
0.0178912,-1.30134
0.0179138,-1.26939
0.0179365,-1.23588
0.0179592,-1.20084
0.0179819,-1.16431
0.0180045,-1.12635
0.0180272,-1.08699
0.0180499,-1.04629
0.0180726,-1.0043
0.0180952,-0.961058
0.0181179,-0.916628
0.0181406,-0.871062
0.0181633,-0.824417
0.0181859,-0.776749
0.0182086,-0.728118
0.0182313,-0.678584
0.018254,-0.628207
0.0182766,-0.57705
0.0182993,-0.525177
0.018322,-0.472652
0.0183447,-0.41954
0.0183673,-0.365907
0.01839,-0.311819
0.0184127,-0.257344
0.0184354,-0.202548
0.018458,-0.147501
0.0184807,-0.0922712
0.0185034,-0.0369263
0.0185261,0.0184644
0.0185488,0.0738323
0.0185714,0.129108
0.0185941,0.184224
0.0186168,0.239111
0.0186395,0.2937
0.0186621,0.347925
0.0186848,0.401717
0.0187075,0.45501
0.0187302,0.507738
0.0187528,0.559836
0.0187755,0.611238
0.0187982,0.661882
0.0188209,0.711704
0.0188435,0.760643
0.0188662,0.808639
0.0188889,0.855631
0.0189116,0.901563
0.0189342,0.946378
0.0189569,0.99002
0.0189796,1.03244
0.0190023,1.07357
0.0190249,1.11338
0.0190476,1.15182
0.0190703,1.18882
0.019093,1.22436
0.0191156,1.25839
0.0191383,1.29087
0.019161,1.32175
0.0191837,1.351
0.0192063,1.37859
0.019229,1.40448
0.0192517,1.42864
0.0192744,1.45105
0.0192971,1.47167
0.0193197,1.49049
0.0193424,1.50748
0.0193651,1.52262
0.0193878,1.5359
0.0194104,1.5473
0.0194331,1.5568
0.0194558,1.56441
0.0194785,1.57011
0.0195011,1.5739
0.0195238,1.57577
0.0195465,1.57573
0.0195692,1.57378
0.0195918,1.56992
0.0196145,1.56416
0.0196372,1.55651
0.0196599,1.54698
0.0196825,1.53559
0.0197052,1.52235
0.0197279,1.50729
0.0197506,1.49042
0.0197732,1.47177
0.0197959,1.45137
0.0198186,1.42924
0.0198413,1.40541
0.0198639,1.37991
0.0198866,1.35279
0.0199093,1.32408
0.019932,1.29381
0.0199546,1.26203
0.0199773,1.22877
0.02,1.19409
0.0200227,1.15803
0.0200454,1.12063
0.020068,1.08195
0.0200907,1.04203
0.0201134,1.00094
0.0201361,0.958715
0.0201587,0.915418
0.0201814,0.871105
0.0202041,0.825832
0.0202268,0.779658
0.0202494,0.732644
0.0202721,0.684849
0.0202948,0.636334
0.0203175,0.587163
0.0203401,0.537397
0.0203628,0.487101
0.0203855,0.436337
0.0204082,0.385172
0.0204308,0.333669
0.0204535,0.281893
0.0204762,0.229911
0.0204989,0.177787
0.0205215,0.125586
0.0205442,0.0733753
0.0205669,0.0212185
0.0205896,-0.0308189
0.0206122,-0.0826724
0.0206349,-0.134278
0.0206576,-0.185571
0.0206803,-0.236488
0.0207029,-0.286969
0.0207256,-0.336949
0.0207483,-0.386369
0.020771,-0.435168
0.0207937,-0.483287
0.0208163,-0.530668
0.020839,-0.577254
0.0208617,-0.62299
0.0208844,-0.667819
0.020907,-0.711691
0.0209297,-0.754551
0.0209524,-0.796351
0.0209751,-0.837041
0.0209977,-0.876574
0.0210204,-0.914904
0.0210431,-0.951988
0.0210658,-0.987782
0.0210884,-1.02225
0.0211111,-1.05534
0.0211338,-1.08704
0.0211565,-1.11729
0.0211791,-1.14607
0.0212018,-1.17335
0.0212245,-1.1991
0.0212472,-1.22328
0.0212698,-1.24589
0.0212925,-1.26689
0.0213152,-1.28626
0.0213379,-1.30399
0.0213605,-1.32006
0.0213832,-1.33445
0.0214059,-1.34716
0.0214286,-1.35818
0.0214512,-1.36749
0.0214739,-1.3751
0.0214966,-1.381
0.0215193,-1.38519
0.021542,-1.38767
0.0215646,-1.38845
0.0215873,-1.38752
0.02161,-1.38492
0.0216327,-1.38063
0.0216553,-1.37467
0.021678,-1.36707
0.0217007,-1.35783
0.0217234,-1.34697
0.021746,-1.33452
0.0217687,-1.3205
0.0217914,-1.30493
0.0218141,-1.28784
0.0218367,-1.26926
0.0218594,-1.24922
0.0218821,-1.22775
0.0219048,-1.20488
0.0219274,-1.18065
0.0219501,-1.1551
0.0219728,-1.12827
0.0219955,-1.1002
0.0220181,-1.07092
0.0220408,-1.04048
0.0220635,-1.00893
0.0220862,-0.976314
0.0221088,-0.942672
0.0221315,-0.908057
0.0221542,-0.872516
0.0221769,-0.8361
0.0221995,-0.798859
0.0222222,-0.760845
0.0222449,-0.722111
0.0222676,-0.682709
0.0222902,-0.642694
0.0223129,-0.602119
0.0223356,-0.561039
0.0223583,-0.519509
0.022381,-0.477585
0.0224036,-0.435322
0.0224263,-0.392775
0.022449,-0.350002
0.0224717,-0.307056
0.0224943,-0.263995
0.022517,-0.220874
0.0225397,-0.177747
0.0225624,-0.134671
0.022585,-0.0917005
0.0226077,-0.0488886
0.0226304,-0.00628963
0.0226531,0.0360433
0.0226757,0.0780576
0.0226984,0.119702
0.0227211,0.160924
0.0227438,0.201675
0.0227664,0.241906
0.0227891,0.281567
0.0228118,0.320613
0.0228345,0.358996
0.0228571,0.396672
0.0228798,0.433597
0.0229025,0.469729
0.0229252,0.505026
0.0229478,0.539449
0.0229705,0.57296
0.0229932,0.605521
0.0230159,0.637097
0.0230385,0.667654
0.0230612,0.69716
0.0230839,0.725585
0.0231066,0.752899
